Raman_shift_cm-1	Intensity_a.u.
1200.0	0.027441731019022354
1201.0	0.020971654113400868
1202.0	0.026333866120601252
1203.0	0.03358386741212871
1204.0	0.024830906999990052
1205.0	0.031637669848848575
1206.0	0.021861404245284117
1207.0	0.02862427953616442
1208.0	0.023684033245194937
1209.0	0.022391843594711858
1210.0	0.03418598343045281
1211.0	0.022546590070748853
1212.0	0.03973236830266177
1213.0	0.02125933716515968
1214.0	0.02842344760609087
1215.0	0.029907556320731145
1216.0	0.03334346617113213
1217.0	0.02500176776699354
1218.0	0.03147179547771363
1219.0	0.033874807042881726
1220.0	0.042597026174289995
1221.0	0.028256511140648567
1222.0	0.03231427809595037
1223.0	0.039455378692551536
1224.0	0.02884069597666992
1225.0	0.03141985299950237
1226.0	0.028722958622315303
1227.0	0.03792643212199482
1228.0	0.038259360902052675
1229.0	0.04709364376601212
1230.0	0.025543072081617425
1231.0	0.025749892059978727
1232.0	0.04015627660066566
1233.0	0.04807346754761111
1234.0	0.03220545483166824
1235.0	0.03890047770216135
1236.0	0.03670717324653687
1237.0	0.04558196935791922
1238.0	0.03730986959537048
1239.0	0.038191993085325796
1240.0	0.04046458031773885
1241.0	0.03764289684903313
1242.0	0.04753277199050277
1243.0	0.04579203271729957
1244.0	0.04515670739112309
1245.0	0.04091141936592122
1246.0	0.03255807034633901
1247.0	0.04249994051378381
1248.0	0.040729457817866244
1249.0	0.04332797345311319
1250.0	0.04445419473757322
1251.0	0.045565663779609925
1252.0	0.04202712773509413
1253.0	0.05028809045017758
1254.0	0.04113382521297021
1255.0	0.03718840827707095
1256.0	0.045550821240098426
1257.0	0.04590438546938318
1258.0	0.03658714465868275
1259.0	0.039646463170436484
1260.0	0.04813084200291493
1261.0	0.040173745272238624
1262.0	0.048029737034299934
1263.0	0.047055344142589155
1264.0	0.04256604642572468
1265.0	0.04933950293740354
1266.0	0.04248737585271952
1267.0	0.0322564121339421
1268.0	0.045074022446952175
1269.0	0.04348609588393716
1270.0	0.04813467047270642
1271.0	0.04224745866294154
1272.0	0.04231886748190927
1273.0	0.038077255392892376
1274.0	0.03377021451574088
1275.0	0.04439325407165252
1276.0	0.04019450483866621
1277.0	0.0387632945205245
1278.0	0.0436043031862951
1279.0	0.04528839557558189
1280.0	0.056840356574170574
1281.0	0.03709123845814092
1282.0	0.0376647181452227
1283.0	0.036965111038569386
1284.0	0.04279993664274
1285.0	0.03639809886808702
1286.0	0.03869713545452872
1287.0	0.038537563428443444
1288.0	0.03679171410545126
1289.0	0.037260100704490935
1290.0	0.037552623472527094
1291.0	0.03200866464073468
1292.0	0.03511144145234741
1293.0	0.036949224266570234
1294.0	0.033615757463494156
1295.0	0.03761234435057694
1296.0	0.039855910242438584
1297.0	0.039178771326058424
1298.0	0.034420636874592625
1299.0	0.033585035242275706
1300.0	0.03875369441849068
1301.0	0.03321219325576036
1302.0	0.03366369051004606
1303.0	0.03493281337138743
1304.0	0.02655577996227896
1305.0	0.034048583853313094
1306.0	0.0213595655608963
1307.0	0.041484913572683704
1308.0	0.026993665469473394
1309.0	0.027840179688449092
1310.0	0.024130777480176203
1311.0	0.028830593447419787
1312.0	0.0323271606151922
1313.0	0.030337260081202775
1314.0	0.02413128281053498
1315.0	0.019500891899732264
1316.0	0.03700220926881991
1317.0	0.02838592241425197
1318.0	0.028932350589334032
1319.0	0.024314421550495312
1320.0	0.027987307140712063
1321.0	0.016629360403537106
1322.0	0.024008693846187
1323.0	0.029849504846668304
1324.0	0.019406257104060427
1325.0	0.028341517169509382
1326.0	0.031133367064144282
1327.0	0.022363016938225927
1328.0	0.019096375709612468
1329.0	0.03308389341849118
1330.0	0.0229932041860677
1331.0	0.021213327891160965
1332.0	0.02515609086417647
1333.0	0.024118454229651212
1334.0	0.0376196488268661
1335.0	0.035410858992476826
1336.0	0.044590640850981585
1337.0	0.049425852516085146
1338.0	0.056550500105060235
1339.0	0.06401095342655602
1340.0	0.07092974105260283
1341.0	0.08663901956302453
1342.0	0.10468533681269074
1343.0	0.10457849686144619
1344.0	0.12491096500465097
1345.0	0.14870693728155107
1346.0	0.16639555821086363
1347.0	0.19808629180267304
1348.0	0.22174668769059172
1349.0	0.2591736416755918
1350.0	0.2968023327540831
1351.0	0.33791468756282206
1352.0	0.3684209274010699
1353.0	0.41525030151150844
1354.0	0.45595777269697846
1355.0	0.5168689443660304
1356.0	0.5607141136364225
1357.0	0.6016856786859824
1358.0	0.6491295119029138
1359.0	0.7057881159750903
1360.0	0.74875123651895
1361.0	0.7987336339315952
1362.0	0.8430155648713631
1363.0	0.89282742860022
1364.0	0.907328532197743
1365.0	0.9456122633363291
1366.0	0.9590911222581763
1367.0	0.9780639402147819
1368.0	0.9838602467480121
1369.0	1.0
1370.0	0.9933307737694759
1371.0	0.9826635261073321
1372.0	0.9693236511876442
1373.0	0.9355864017087053
1374.0	0.9089258433591627
1375.0	0.8818354925394398
1376.0	0.8457529688051241
1377.0	0.8015299737805676
1378.0	0.7504017990574239
1379.0	0.7058328192064566
1380.0	0.6488882446555496
1381.0	0.6003977975405732
1382.0	0.5588435822889191
1383.0	0.4986855768887483
1384.0	0.4567989981990999
1385.0	0.4174320006692408
1386.0	0.36561634982626046
1387.0	0.32289286573294496
1388.0	0.2862095212527831
1389.0	0.25613288006094154
1390.0	0.21391750955329342
1391.0	0.18319622076833506
1392.0	0.16233965429839609
1393.0	0.1390145508082512
1394.0	0.11356849184554559
1395.0	0.1014372273144021
1396.0	0.08183462329976862
1397.0	0.0754975084916792
1398.0	0.056735912590238774
1399.0	0.05025277782192333
1400.0	0.03972332538723651
1401.0	0.044281655324984015
1402.0	0.0199630598475586
1403.0	0.028187787264243234
1404.0	0.01590467446418412
1405.0	0.013565621855044271
1406.0	0.008792103867410113
1407.0	0.0129103600318142
1408.0	0.014253312336088711
1409.0	0.0035203078849749218
1410.0	0.007683397654368666
1411.0	0.012854013697319883
1412.0	0.00798942571031919
1413.0	0.007375436295952016
1414.0	0.00912316266857169
1415.0	0.014856549095049958
1416.0	0.003065253959029697
1417.0	0.0
1418.0	0.009998074154561195
1419.0	0.011709551568537719
1420.0	0.006431433443150868
1421.0	0.011982752341801774
1422.0	0.0024950762546968406
1423.0	0.02072402143042903
1424.0	0.019402814904012494
1425.0	0.012132982611272923
1426.0	0.013728300339618594
1427.0	0.021399188307968442
1428.0	0.013886706537226052
1429.0	0.012005762305731178
1430.0	0.012473201927841309
1431.0	0.006212714705765993
1432.0	0.010839594212261537
1433.0	0.015270977984025672
1434.0	0.004589203431266822
1435.0	0.011517551777522792
1436.0	0.009760788298634861
1437.0	0.016912798193472817
1438.0	0.019224106342649355
1439.0	0.019120793670357655
1440.0	0.014470080231041989
1441.0	0.02767912528573578
1442.0	0.028195541073205755
1443.0	0.02519166031530307
1444.0	0.020307320053354765
1445.0	0.01834756556972386
1446.0	0.017017929360017142
1447.0	0.014953626317143729
1448.0	0.01344835658212586
1449.0	0.02505794102686093
1450.0	0.022318469628109787
1451.0	0.02756491262627418
1452.0	0.029661713409879994
1453.0	0.023166765157378318
1454.0	0.03363340847717838
1455.0	0.026155916123906487
1456.0	0.020856032585784733
1457.0	0.03139029032111864
1458.0	0.024520597588317327
1459.0	0.030326218519348695
1460.0	0.03815639812939518
1461.0	0.029877644334092544
1462.0	0.03379990412626517
1463.0	0.030792785306689177
1464.0	0.027930161621778284
1465.0	0.023224498545498136
1466.0	0.026974099425583566
1467.0	0.03127277847036312
1468.0	0.03555913719832641
1469.0	0.03397248448141901
1470.0	0.0225890108637073
1471.0	0.027323840220601907
1472.0	0.029769855975768936
1473.0	0.03502896875999963
1474.0	0.029411753191405578
1475.0	0.0333567034898655
1476.0	0.026657842468013924
1477.0	0.03067725342303787
1478.0	0.033679349371800296
1479.0	0.03424243700815861
1480.0	0.03709087442426643
1481.0	0.029994143115085754
1482.0	0.04003494816219013
1483.0	0.03620827061887811
1484.0	0.041911269770820526
1485.0	0.03739057412341709
1486.0	0.0368148570419396
1487.0	0.04431812693712444
1488.0	0.04538527542036734
1489.0	0.04473907343368062
1490.0	0.045766211778297886
1491.0	0.0419525143110849
1492.0	0.03828461950133711
1493.0	0.0482483275877418
1494.0	0.039158175939187655
1495.0	0.04235951859368515
1496.0	0.039810584107177034
1497.0	0.04434299011334722
1498.0	0.04498317205896517
1499.0	0.04506917936944535
1500.0	0.04076591753873087
1501.0	0.04800931580537538
1502.0	0.0483536269710107
1503.0	0.025844775975268863
1504.0	0.03737978992139606
1505.0	0.045875769259395224
1506.0	0.04526609344508387
1507.0	0.047478519727564325
1508.0	0.04677070903698495
1509.0	0.037399857958994746
1510.0	0.046925178535887485
1511.0	0.03963817457435415
1512.0	0.04189355737840047
1513.0	0.0430106185597041
1514.0	0.043262192619736774
1515.0	0.03748354865081648
1516.0	0.03962752710542948
1517.0	0.042793420927999766
1518.0	0.035508864418180096
1519.0	0.04597677264942405
1520.0	0.04084937846830617
1521.0	0.04332046658527008
1522.0	0.038515820605395906
1523.0	0.04073054510257525
1524.0	0.04448135950153208
1525.0	0.03630535208549666
1526.0	0.03784039607732241
1527.0	0.04119659957124122
1528.0	0.0446611894568244
1529.0	0.04841766536161063
1530.0	0.0392312199662689
1531.0	0.03451195152908235
1532.0	0.0465427375230523
1533.0	0.0380548203180403
1534.0	0.05188655735759084
1535.0	0.028410593650806178
1536.0	0.045204137434478694
1537.0	0.03708852933528634
1538.0	0.04120220098706645
1539.0	0.03121606411487618
1540.0	0.04541773901149637
1541.0	0.042299211406997876
1542.0	0.041547982683738806
1543.0	0.03212345238125006
1544.0	0.038815598234502216
1545.0	0.03123626073072719
1546.0	0.03695676338825014
1547.0	0.032151918919627834
1548.0	0.029611772663438403
1549.0	0.03878219261436771
1550.0	0.031050489511612607
1551.0	0.0376152759575406
1552.0	0.045118265984601384
1553.0	0.03478644660452372
1554.0	0.032301994772757144
1555.0	0.032976507212741604
1556.0	0.02259420583636024
1557.0	0.03552101484118556
1558.0	0.023449419858254165
1559.0	0.03585394349391987
1560.0	0.03437952144957345
1561.0	0.027931498593871357
1562.0	0.028798997472338127
1563.0	0.028190766960242482
1564.0	0.019154978249930732
1565.0	0.02590889985242252
1566.0	0.03614651983698377
1567.0	0.02213936597694597
1568.0	0.0342071066541386
1569.0	0.023778755386262722
1570.0	0.023176338283040603
1571.0	0.03062021723098389
1572.0	0.02546848833540392
1573.0	0.019552116282063856
1574.0	0.01987875695669395
1575.0	0.030497080113887968
1576.0	0.022622982324421788
1577.0	0.037250158823491225
1578.0	0.01281143251914101
1579.0	0.011708173302821624
1580.0	0.017926736258881585
1581.0	0.019210132410908836
1582.0	0.020764726800994768
1583.0	0.01823238371384788
1584.0	0.02455306390794406
1585.0	0.018317996458276763
1586.0	0.016123425017910857
1587.0	0.010376958253388984
1588.0	0.015576140878697036
1589.0	0.013859356538287978
1590.0	0.02209782206500571
1591.0	0.027068546311646176
1592.0	0.019972933986568086
1593.0	0.006432083399824125
1594.0	0.017608879738608443
1595.0	0.01633173033073196
1596.0	0.018691111656937973
1597.0	0.01742176000993463
1598.0	0.020872585621793543
1599.0	0.011041242472001916
1600.0	0.023455670068140234
